   time(s)     rx(cm)     ry(cm)   phi(rad)    rcx(cm)    rcy(cm)        eta          w
   0.03000   32.47038   38.19051    5.92049   30.13503    0.30135    0.13139   -0.30373
   0.06000   32.54380   38.12288    5.91080   30.96737    0.30967    0.14577   -0.34210
   0.09000   32.61722   38.05298    5.89994   31.65293    0.31653    0.16034   -0.38223
   0.12000   32.69052   37.98070    5.88788   32.19018    0.32190    0.17412   -0.42137
   0.15000   32.76353   37.90607    5.87471   32.58987    0.32590    0.18617   -0.45659
   0.18000   32.83605   37.82921    5.86059   32.86577    0.32866    0.19566   -0.48503
   0.21000   32.90787   37.75040    5.84575   33.02980    0.33030    0.20191   -0.50412
   0.24000   32.97873   37.67002    5.83051   33.08969    0.33090    0.20443   -0.51191
   0.27000   33.04845   37.58856    5.81522   33.04777    0.33048    0.20291   -0.50726
   0.30000   33.11686   37.50654    5.80026   32.90013    0.32900    0.19728   -0.49007
   0.33000   33.18386   37.42453    5.78599   32.63572    0.32636    0.18769   -0.46129
   0.36000   33.24939   37.34303    5.77273   32.23529    0.32235    0.17459   -0.42297
   0.39000   33.31350   37.26247    5.76071   31.67086    0.31671    0.15871   -0.37800
   0.42000   33.37625   37.18317    5.75010   30.90732    0.30907    0.14112   -0.32991
   0.45000   33.43779   37.10527    5.74091   29.91074    0.29911    0.12309   -0.28247
   0.48000   33.49826   37.02877    5.73308   28.67142    0.28671    0.10606   -0.23926
   0.51000   33.55784   36.95351    5.72645   27.25070    0.27251    0.09143   -0.20331
   0.54000   33.61670   36.87921    5.72074   25.83932    0.25839    0.08035   -0.17675
   0.57000   33.67499   36.80551    5.71568   24.75682    0.24757    0.07348   -0.16058
   0.60000   33.73284   36.73200    5.71096   24.29935    0.24299    0.07092   -0.15459
   0.63000   33.79035   36.65830    5.70628   24.51879    0.24519    0.07216   -0.15747
   0.66000   33.84756   36.58408    5.70141   25.19505    0.25195    0.07625   -0.16705
   0.69000   33.90450   36.50910    5.69619   26.02634    0.26026    0.08200   -0.18063
   0.72000   33.96116   36.43322    5.69055   26.79432    0.26794    0.08818   -0.19540
   0.75000   34.01749   36.35644    5.68449   27.39465    0.27395    0.09374   -0.20886
   0.78000   34.07343   36.27882    5.67807   27.79939    0.27799    0.09795   -0.21912
   0.81000   34.12894   36.20050    5.67140   28.01809    0.28018    0.10042   -0.22518
   0.84000   34.18397   36.12167    5.66462   28.07644    0.28076    0.10113   -0.22691
   0.87000   34.23847   36.04249    5.65784   28.00842    0.28008    0.10037   -0.22501
   0.90000   34.29243   35.96310    5.65116   27.85524    0.27855    0.09863   -0.22073
   0.93000   34.34585   35.88356    5.64461   27.66469    0.27665    0.09654   -0.21558
   0.96000   34.39874   35.80391    5.63822   27.48631    0.27486    0.09464   -0.21092
   0.99000   34.45112   35.72411    5.63194   27.36052    0.27361    0.09334   -0.20774
   1.02000   34.50300   35.64410    5.62572   27.30552    0.27306    0.09279   -0.20640
   1.05000   34.55438   35.56380    5.61953   27.31041    0.27310    0.09287   -0.20656
   1.08000   34.60528   35.48319    5.61332   27.33969    0.27340    0.09320   -0.20735
   1.11000   34.65569   35.40226    5.60710   27.34609    0.27346    0.09329   -0.20755
   1.14000   34.70561   35.32106    5.60089   27.28352    0.27284    0.09264   -0.20596
   1.17000   34.75502   35.23969    5.59478   27.11560    0.27116    0.09089   -0.20169
   1.20000   34.80392   35.15830    5.58884   26.82104    0.26821    0.08793   -0.19453
   1.23000   34.85233   35.07698    5.58314   26.40112    0.26401    0.08398   -0.18508
   1.26000   34.90027   34.99584    5.57775   25.89374    0.25894    0.07963   -0.17472
   1.29000   34.94777   34.91488    5.57264   25.39249    0.25392    0.07571   -0.16550
   1.32000   34.99484   34.83402    5.56776   25.05140    0.25051    0.07325   -0.15972
   1.35000   35.04153   34.75308    5.56297   25.03922    0.25039    0.07318   -0.15953
   1.38000   35.08783   34.67178    5.55809   25.43728    0.25437    0.07614   -0.16644
   1.41000   35.13374   34.58980    5.55288   26.16715    0.26167    0.08228   -0.18090
   1.44000   35.17923   34.50682    5.54713   27.04049    0.27040    0.09115   -0.20210
   1.47000   35.22424   34.42258    5.54068   27.87588    0.27876    0.10174   -0.22789
   1.50000   35.26871   34.33691    5.53344   28.56540    0.28565    0.11266   -0.25508
   1.53000   35.31253   34.24982    5.52541   29.06962    0.29070    0.12241   -0.27980
   1.56000   35.35564   34.16146    5.51674   29.38614    0.29386    0.12955   -0.29822
   1.59000   35.39796   34.07216    5.50766   29.52353    0.29524    0.13299   -0.30713
   1.62000   35.43945   33.98237    5.49849   29.48675    0.29487    0.13207   -0.30465
   1.65000   35.48015   33.89259    5.48956   29.27067    0.29271    0.12672   -0.29063
   1.68000   35.52008   33.80329    5.48119   28.85930    0.28859    0.11748   -0.26685
   1.71000   35.55935   33.71485    5.47364   28.23386    0.28234    0.10558   -0.23693
   1.74000   35.59804   33.62746    5.46700   27.40203    0.27402    0.09288   -0.20580
   1.77000   35.63626   33.54109    5.46122   26.46824    0.26468    0.08170   -0.17906
   1.80000   35.67405   33.45546    5.45611   25.72319    0.25723    0.07447   -0.16206
   1.83000   35.71144   33.37009    5.45129   25.57716    0.25577    0.07320   -0.15906
   1.86000   35.74839   33.28434    5.44632   26.18588    0.26186    0.07893   -0.17242
   1.89000   35.78482   33.19748    5.44070   27.23934    0.27239    0.09144   -0.20215
   1.92000   35.82058   33.10885    5.43398   28.30937    0.28309    0.10926   -0.24575
   1.95000   35.85550   33.01793    5.42582   29.17229    0.29172    0.13001   -0.29851
   1.98000   35.88937   32.92441    5.41603   29.79126    0.29791    0.15098   -0.35413
   2.01000   35.92199   32.82829    5.40463   30.20320    0.30203    0.16962   -0.40561
   2.04000   35.95319   32.72986    5.39185   30.45507    0.30455    0.18389   -0.44637
   2.07000   35.98289   32.62968    5.37809   30.58355    0.30584    0.19240   -0.47117
   2.10000   36.01106   32.52849    5.36387   30.61220    0.30612    0.19446   -0.47700
   2.13000   36.03780   32.42713    5.34976   30.55325    0.30553    0.19002   -0.46351
   2.16000   36.06327   32.32638    5.33631   30.40999    0.30410    0.17968   -0.43307
   2.19000   36.08771   32.22690    5.32396   30.17954    0.30180    0.16472   -0.39042
   2.22000   36.11134   32.12911    5.31297   29.85816    0.29858    0.14703   -0.34183
   2.25000   36.13436   32.03313    5.30343   29.45295    0.29453    0.12897   -0.29417
   2.28000   36.15692   31.93883    5.29521   29.00360    0.29004    0.11310   -0.25378
   2.31000   36.17905   31.84583    5.28803   28.60332    0.28603    0.10166   -0.22544
   2.34000   36.20074   31.75359    5.28147   28.37745    0.28377    0.09603   -0.21170
   2.37000   36.22187   31.66150    5.27511   28.39421    0.28394    0.09639   -0.21251
   2.40000   36.24232   31.56902    5.26854   28.59990    0.28600    0.10171   -0.22532
   2.43000   36.26195   31.47575    5.26147   28.87408    0.28874    0.11003   -0.24566
   2.46000   36.28063   31.38148    5.25377   29.11991    0.29120    0.11899   -0.26796
   2.49000   36.29829   31.28626    5.24545   29.29153    0.29292    0.12639   -0.28662
   2.52000   36.31495   31.19032    5.23669   29.37681    0.29377    0.13051   -0.29707
   2.55000   36.33067   31.09408    5.22779   29.37684    0.29377    0.13040   -0.29662
   2.58000   36.34559   30.99799    5.21907   29.29535    0.29295    0.12593   -0.28499
   2.61000   36.35987   30.90248    5.21083   29.13688    0.29137    0.11784   -0.26438
   2.64000   36.37366   30.80784    5.20327   28.91305    0.28913    0.10771   -0.23910
   2.67000   36.38708   30.71414    5.19646   28.65815    0.28658    0.09778   -0.21486
   2.70000   36.40015   30.62123    5.19028   28.44771    0.28448    0.09062   -0.19766
   2.73000   36.41279   30.52872    5.18442   28.38596    0.28386    0.08859   -0.19278
   2.76000   36.42482   30.43605    5.17847   28.52753    0.28528    0.09324   -0.20373
   2.79000   36.43597   30.34255    5.17194   28.81222    0.28812    0.10482   -0.23155
   2.82000   36.44592   30.24759    5.16435   29.12416    0.29124    0.12219   -0.27453
   2.85000   36.45432   30.15065    5.15531   29.38557    0.29386    0.14312   -0.32833
   2.88000   36.46086   30.05144    5.14458   29.57438    0.29574    0.16484   -0.38665
   2.91000   36.46530   29.94997    5.13215   29.69796    0.29698    0.18466   -0.44218
   2.94000   36.46753   29.84651    5.11820   29.77152    0.29772    0.20034   -0.48773
   2.97000   36.46756   29.74164    5.10313   29.80930    0.29809    0.21035   -0.51737
   3.00000   36.46556   29.63610    5.08745   29.82250    0.29823    0.21381   -0.52739
   3.03000   36.46184   29.53071    5.07179   29.81970    0.29820    0.21058   -0.51691
   3.06000   36.45680   29.42624    5.05672   29.80772    0.29808    0.20115   -0.48797
   3.09000   36.45087   29.32333    5.04272   29.79257    0.29793    0.18671   -0.44522
   3.12000   36.44443   29.22237    5.03011   29.78000    0.29780    0.16910   -0.39517
   3.15000   36.43774   29.12346    5.01901   29.77549    0.29775    0.15075   -0.34516
   3.18000   36.43093   29.02644    5.00930   29.78264    0.29783    0.13436   -0.30218
   3.21000   36.42396   28.93093    5.00069   29.79961    0.29800    0.12245   -0.27186
   3.24000   36.41663   28.83636    4.99275   29.81620    0.29816    0.11677   -0.25759
   3.27000   36.40865   28.74213    4.98498   29.81817    0.29818    0.11788   -0.26015
   3.30000   36.39966   28.64766    4.97691   29.79814    0.29798    0.12500   -0.27770
   3.33000   36.38932   28.55249    4.96815   29.76025    0.29760    0.13633   -0.30620
   3.36000   36.37735   28.45635    4.95846   29.71454    0.29715    0.14953   -0.34024
   3.39000   36.36358   28.35918    4.94774   29.67037    0.29670    0.16229   -0.37397
   3.42000   36.34794   28.26116    4.93610   29.63443    0.29634    0.17274   -0.40216
   3.45000   36.33051   28.16259    4.92375   29.61125    0.29611    0.17966   -0.42100
   3.48000   36.31146   28.06388    4.91101   29.60401    0.29604    0.18257   -0.42871
   3.51000   36.29103   27.96544    4.89819   29.61478    0.29615    0.18167   -0.42569
   3.54000   36.26945   27.86764    4.88559   29.64382    0.29644    0.17778   -0.41433
   3.57000   36.24695   27.77069    4.87340   29.68808    0.29688    0.17221   -0.39848
   3.60000   36.22364   27.67467    4.86168   29.73931    0.29739    0.16654   -0.38259
   3.63000   36.19953   27.57949    4.85038   29.78366    0.29784    0.16235   -0.37091
   3.66000   36.17450   27.48496    4.83932   29.80489    0.29805    0.16091   -0.36665
   3.69000   36.14837   27.39081    4.82825   29.79155    0.29792    0.16281   -0.37138
   3.72000   36.12088   27.29677    4.81691   29.74345    0.29743    0.16793   -0.38476
   3.75000   36.09177   27.20263    4.80506   29.67163    0.29672    0.17537   -0.40464
   3.78000   36.06086   27.10828    4.79258   29.59263    0.29593    0.18377   -0.42746
   3.81000   36.02804   27.01376    4.77944   29.52238    0.29522    0.19157   -0.44891
   3.84000   35.99334   26.91924    4.76573   29.47342    0.29473    0.19731   -0.46476
   3.87000   35.95693   26.82500    4.75169   29.45517    0.29455    0.19990   -0.47160
   3.90000   35.91909   26.73140    4.73760   29.47517    0.29475    0.19871   -0.46750
   3.93000   35.88016   26.63877    4.72380   29.53991    0.29540    0.19365   -0.45239
   3.96000   35.84052   26.54742    4.71059   29.65440    0.29654    0.18523   -0.42809
   3.99000   35.80049   26.45752    4.69820   29.81940    0.29819    0.17451   -0.39805
   4.02000   35.76030   26.36914    4.68673   30.02557    0.30026    0.16303   -0.36680
   4.05000   35.72001   26.28218    4.67614   30.24509    0.30245    0.15266   -0.33927
   4.08000   35.67953   26.19643    4.66625   30.42700    0.30427    0.14528   -0.32002
   4.11000   35.63861   26.11156    4.65676   30.50865    0.30509    0.14244   -0.31252
   4.14000   35.59686   26.02722    4.64729   30.44813    0.30448    0.14502   -0.31873
   4.17000   35.55382   25.94304    4.63743   30.25309    0.30253    0.15302   -0.33883
   4.20000   35.50900   25.85871    4.62678   29.97405    0.29974    0.16558   -0.37125
   4.23000   35.46194   25.77404    4.61501   29.67080    0.29671    0.18128   -0.41303
   4.26000   35.41228   25.68894    4.60191   29.38658    0.29387    0.19841   -0.46024
   4.29000   35.35975   25.60348    4.58738   29.14322    0.29143    0.21535   -0.50866
   4.32000   35.30423   25.51783    4.57144   28.94738    0.28947    0.23080   -0.55427
   4.35000   35.24574   25.43227    4.55422   28.79795    0.28798    0.24384   -0.59381
   4.38000   35.18442   25.34714    4.53593   28.69078    0.28691    0.25397   -0.62502
   4.41000   35.12049   25.26280    4.51686   28.62105    0.28621    0.26103   -0.64678
   4.44000   35.05426   25.17959    4.49727   28.58417    0.28584    0.26515   -0.65904
   4.47000   34.98603   25.09780    4.47745   28.57607    0.28576    0.26663   -0.66258
   4.50000   34.91613   25.01767    4.45763   28.59319    0.28593    0.26586   -0.65867
   4.53000   34.84486   24.93935    4.43801   28.63247    0.28632    0.26328   -0.64882
   4.56000   34.77248   24.86296    4.41876   28.69145    0.28691    0.25929   -0.63448
   4.59000   34.69922   24.78854    4.39999   28.76817    0.28768    0.25422   -0.61692
   4.62000   34.62526   24.71610    4.38178   28.86103    0.28861    0.24837   -0.59720
   4.65000   34.55076   24.64563    4.36418   28.96816    0.28968    0.24202   -0.57630
   4.68000   34.47584   24.57708    4.34721   29.08633    0.29086    0.23547   -0.55522
   4.71000   34.40056   24.51039    4.33085   29.20930    0.29209    0.22913   -0.53518
   4.74000   34.32493   24.44545    4.31506   29.32609    0.29326    0.22354   -0.51773
   4.77000   34.24889   24.38217    4.29972   29.41993    0.29420    0.21939   -0.50475
   4.80000   34.17226   24.32044    4.28467   29.46958    0.29470    0.21745   -0.49833
   4.83000   34.09477   24.26012    4.26969   29.45424    0.29454    0.21850   -0.50053
   4.86000   34.01606   24.20113    4.25449   29.36133    0.29361    0.22309   -0.51303
   4.89000   33.93569   24.14337    4.23874   29.19312    0.29193    0.23147   -0.53679
   4.92000   33.85318   24.08683    4.22211   28.96750    0.28967    0.24338   -0.57172
   4.95000   33.76804   24.03154    4.20429   28.71167    0.28712    0.25813   -0.61650
   4.98000   33.67988   23.97763    4.18501   28.45332    0.28453    0.27463   -0.66856
   5.01000   33.58841   23.92530    4.16412   28.21421    0.28214    0.29159   -0.72427
   5.04000   33.49349   23.87484    4.14157   28.00814    0.28008    0.30770   -0.77931
   5.07000   33.39524   23.82658    4.11744   27.84211    0.27842    0.32183   -0.82918
   5.10000   33.29391   23.78086    4.09195   27.71848    0.27718    0.33312   -0.86984
   5.13000   33.19000   23.73803    4.06543   27.63686    0.27637    0.34101   -0.89827
   5.16000   33.08410   23.69835    4.03826   27.59527    0.27595    0.34531   -0.91292
   5.19000   32.97688   23.66199    4.01086   27.59053    0.27591    0.34616   -0.91396
   5.22000   32.86897   23.62903    3.98360   27.61781    0.27618    0.34406   -0.90336
   5.25000   32.76091   23.59947    3.95678   27.66983    0.27670    0.33983   -0.88457
   5.28000   32.65307   23.57321    3.93058   27.73587    0.27736    0.33454   -0.86214
   5.31000   32.54560   23.55014    3.90503   27.80139    0.27801    0.32948   -0.84104
   5.34000   32.43845   23.53016    3.88003   27.84931    0.27849    0.32595   -0.82599
   5.37000   32.33137   23.51322    3.85533   27.86342    0.27863    0.32504   -0.82087
   5.40000   32.22397   23.49932    3.83059   27.83328    0.27833    0.32748   -0.82815
   5.43000   32.11578   23.48858    3.80544   27.75801    0.27758    0.33344   -0.84868
   5.46000   32.00635   23.48118    3.77948   27.64628    0.27646    0.34254   -0.88161
   5.49000   31.89529   23.47738    3.75239   27.51266    0.27513    0.35398   -0.92463
   5.52000   31.78239   23.47750    3.72390   27.37253    0.27373    0.36671   -0.97439
   5.55000   31.66758   23.48187    3.69388   27.23837    0.27238    0.37968   -1.02706
   5.58000   31.55100   23.49083    3.66229   27.11824    0.27118    0.39201   -1.07889
   5.61000   31.43294   23.50464    3.62921   27.01600    0.27016    0.40306   -1.12676
   5.64000   31.31384   23.52353    3.59478   26.93230    0.26932    0.41248   -1.16854
   5.67000   31.19419   23.54765    3.55920   26.86561    0.26866    0.42020   -1.20331
   5.70000   31.07452   23.57707    3.52268   26.81308    0.26813    0.42637   -1.23127
   5.73000   30.95534   23.61182    3.48541   26.77124    0.26771    0.43129   -1.25353
   5.76000   30.83708   23.65189    3.44753   26.73654    0.26737    0.43534   -1.27178
   5.79000   30.72011   23.69725    3.40914   26.70587    0.26706    0.43888   -1.28778
   5.82000   30.60474   23.74788    3.37028   26.67699    0.26677    0.44221   -1.30301
   5.85000   30.49122   23.80378    3.33096   26.64877    0.26649    0.44548   -1.31828
   5.88000   30.37981   23.86492    3.29118   26.62130    0.26621    0.44870   -1.33357
   5.91000   30.27079   23.93125    3.25096   26.59563    0.26596    0.45170   -1.34804
   5.94000   30.16446   24.00267    3.21033   26.57342    0.26573    0.45421   -1.36015
   5.97000   30.06116   24.07902    3.16941   26.55649    0.26556    0.45589   -1.36800
   6.00000   29.96129   24.16002    3.12835   26.54645    0.26546    0.45640   -1.36967
   6.03000   29.86523   24.24528    3.08735   26.54445    0.26544    0.45546   -1.36363
   6.06000   29.77335   24.33434    3.04666   26.55100    0.26551    0.45291   -1.34903
   6.09000   29.68595   24.42666    3.00653   26.56600    0.26566    0.44869   -1.32587
   6.12000   29.60325   24.52168    2.96722   26.58866    0.26589    0.44292   -1.29511
   6.15000   29.52537   24.61883    2.92891   26.61761    0.26618    0.43585   -1.25849
   6.18000   29.45232   24.71763    2.89176   26.65096    0.26651    0.42785   -1.21828
   6.21000   29.38401   24.81767    2.85583   26.68647    0.26686    0.41937   -1.17697
   6.24000   29.32028   24.91867    2.82113   26.72181    0.26722    0.41087   -1.13690
   6.27000   29.26092   25.02041    2.78757   26.75492    0.26755    0.40279   -1.09988
   6.30000   29.20572   25.12281    2.75507   26.78437    0.26784    0.39539   -1.06696
   6.33000   29.15447   25.22581    2.72349   26.80965    0.26810    0.38878   -1.03833
   6.36000   29.10698   25.32938    2.69272   26.83126    0.26831    0.38286   -1.01330
   6.39000   29.06311   25.43346    2.66266   26.85052    0.26851    0.37736   -0.99052
   6.42000   29.02272   25.53796    2.63328   26.86923    0.26869    0.37185   -0.96816
   6.45000   28.98574   25.64271    2.60459   26.88927    0.26889    0.36588   -0.94433
   6.48000   28.95206   25.74749    2.57667   26.91221    0.26912    0.35901   -0.91738
   6.51000   28.92159   25.85200    2.54961   26.93915    0.26939    0.35091   -0.88622
   6.54000   28.89421   25.95595    2.52356   26.97052    0.26971    0.34142   -0.85052
   6.57000   28.86975   26.05903    2.49864   27.00608    0.27006    0.33056   -0.81083
   6.60000   28.84806   26.16099    2.47495   27.04482    0.27045    0.31864   -0.76859
   6.63000   28.82891   26.26167    2.45253   27.08494    0.27085    0.30619   -0.72593
   6.66000   28.81211   26.36103    2.43136   27.12385    0.27124    0.29396   -0.68546
   6.69000   28.79746   26.45914    2.41133   27.15839    0.27158    0.28288   -0.64996
   6.72000   28.78478   26.55622    2.39225   27.18533    0.27185    0.27390   -0.62206
   6.75000   28.77393   26.65258    2.37386   27.20223    0.27202    0.26788   -0.60386
   6.78000   28.76484   26.74863    2.35585   27.20841    0.27208    0.26541   -0.59670
